t,theta
   0.0000000000000000      ,  0.14000000000000001     
   9.9999997764825821E-003 ,  0.13998604568915940     
   1.9999999552965164E-002 ,  0.13995814542641291     
   2.9999999329447746E-002 ,  0.13991630894747573     
   3.9999999105930328E-002 ,  0.13986054736320730     
   4.9999998882412910E-002 ,  0.13979087315784797     
   5.9999998658895493E-002 ,  0.13970730018712840     
   6.9999998435378075E-002 ,  0.13960984367625237     
   7.9999998211860657E-002 ,  0.13949852021775272     
   8.9999997988343239E-002 ,  0.13937334776922100     
   9.9999997764825821E-002 ,  0.13923434565091089     
  0.10999999754130840      ,  0.13908153454321556     
  0.11999999731779099      ,  0.13891493648401940     
  0.12999999709427357      ,  0.13873457486592417     
  0.13999999687075615      ,  0.13854047443334980     
  0.14999999664723873      ,  0.13833266127951030     
  0.15999999642372131      ,  0.13811116284326472     
  0.16999999620020390      ,  0.13787600790584373     
  0.17999999597668648      ,  0.13762722658745172     
  0.18999999575316906      ,  0.13736485034374513     
  0.19999999552965164      ,  0.13708891196218684     
  0.20999999530613422      ,  0.13679944555827714     
  0.21999999508261681      ,  0.13649648657166155     
  0.22999999485909939      ,  0.13618007176211577     
  0.23999999463558197      ,  0.13585023920540784     
  0.24999999441206455      ,  0.13550702828903818     
  0.25999999418854713      ,  0.13515047970785754     
  0.26999999396502972      ,  0.13478063545956326     
  0.27999999374151230      ,  0.13439753884007413     
  0.28999999351799488      ,  0.13400123443878420     
  0.29999999329447746      ,  0.13359176813369586     
  0.30999999307096004      ,  0.13316918708643258     
  0.31999999284744263      ,  0.13273353973713148     
  0.32999999262392521      ,  0.13228487579921638     
  0.33999999240040779      ,  0.13182324625405134     
  0.34999999217689037      ,  0.13134870334547533     
  0.35999999195337296      ,  0.13086130057421827     
  0.36999999172985554      ,  0.13036109269219884     
  0.37999999150633812      ,  0.12984813569670453     
  0.38999999128282070      ,  0.12932248682445413     
  0.39999999105930328      ,  0.12878420454554337     
  0.40999999083578587      ,  0.12823334855727384     
  0.41999999061226845      ,  0.12766997977786565     
  0.42999999038875103      ,  0.12709416034005455     
  0.43999999016523361      ,  0.12650595358457356     
  0.44999998994171619      ,  0.12590542405351982     
  0.45999998971819878      ,  0.12529263748360700     
  0.46999998949468136      ,  0.12466766079930379     
  0.47999998927116394      ,  0.12403056210585896     
  0.48999998904764652      ,  0.12338141068221342     
  0.49999998882412910      ,  0.12272027697379984     
  0.50999998860061169      ,  0.12204723258523026     
  0.51999998837709427      ,  0.12136235027287240     
  0.52999998815357685      ,  0.12066570393731489     
  0.53999998793005943      ,  0.11995736861572229     
  0.54999998770654202      ,  0.11923742047408016     
  0.55999998748302460      ,  0.11850593679933104     
  0.56999998725950718      ,  0.11776299599140160     
  0.57999998703598976      ,  0.11700867755512183     
  0.58999998681247234      ,  0.11624306209203672     
  0.59999998658895493      ,  0.11546623129211098     
  0.60999998636543751      ,  0.11467826792532759     
  0.61999998614192009      ,  0.11387925583318079     
  0.62999998591840267      ,  0.11306927992006389     
  0.63999998569488525      ,  0.11224842614455305     
  0.64999998547136784      ,  0.11141678151058713     
  0.65999998524785042      ,  0.11057443405854489     
  0.66999998502433300      ,  0.10972147285621964     
  0.67999998480081558      ,  0.10885798798969257     
  0.68999998457729816      ,  0.10798407055410515     
  0.69999998435378075      ,  0.10709981264433148     
  0.70999998413026333      ,  0.10620530734555129     
  0.71999998390674591      ,  0.10530064872372444     
  0.72999998368322849      ,  0.10438593181596750     
  0.73999998345971107      ,  0.10346125262083353     
  0.74999998323619366      ,  0.10252670808849547     
  0.75999998301267624      ,  0.10158239611083432     
  0.76999998278915882      ,  0.10062841551143269     
  0.77999998256564140      ,   9.9664866035474711E-002
  0.78999998234212399      ,   9.8691848339553134E-002
  0.79999998211860657      ,   9.7709463981384456E-002
  0.80999998189508915      ,   9.6717815409433000E-002
  0.81999998167157173      ,   9.5717005952444867E-002
  0.82999998144805431      ,   9.4707139808892657E-002
  0.83999998122453690      ,   9.3688322036331900E-002
  0.84999998100101948      ,   9.2660658540670141E-002
  0.85999998077750206      ,   9.1624256065349644E-002
  0.86999998055398464      ,   9.0579222180444743E-002
  0.87999998033046722      ,   8.9525665271674756E-002
  0.88999998010694981      ,   8.8463694529333489E-002
  0.89999997988343239      ,   8.7393419937136424E-002
  0.90999997965991497      ,   8.6314952260986538E-002
  0.91999997943639755      ,   8.5228403037659869E-002
  0.92999997921288013      ,   8.4133884563411837E-002
  0.93999997898936272      ,   8.3031509882505447E-002
  0.94999997876584530      ,   8.1921392775662488E-002
  0.95999997854232788      ,   8.0803647748438803E-002
  0.96999997831881046      ,   7.9678390019524731E-002
  0.97999997809529305      ,   7.8545735508971898E-002
  0.98999997787177563      ,   7.7405800826347571E-002
  0.99999997764825821      ,   7.6258703258817562E-002
   1.0099999774247408      ,   7.5104560759159125E-002
   1.0199999772012234      ,   7.3943491933704766E-002
   1.0299999769777060      ,   7.2775616030218399E-002
   1.0399999767541885      ,   7.1601052925704928E-002
   1.0499999765306711      ,   7.0419923114154598E-002
   1.0599999763071537      ,   6.9232347694223276E-002
   1.0699999760836363      ,   6.8038448356849995E-002
   1.0799999758601189      ,   6.6838347372813009E-002
   1.0899999756366014      ,   6.5632167580225637E-002
   1.0999999754130840      ,   6.4420032371973260E-002
   1.1099999751895666      ,   6.3202065683092709E-002
   1.1199999749660492      ,   6.1978391978095411E-002
   1.1299999747425318      ,   6.0749136238235683E-002
   1.1399999745190144      ,   5.9514423948725456E-002
   1.1499999742954969      ,   5.8274381085896818E-002
   1.1599999740719795      ,   5.7029134104313761E-002
   1.1699999738484621      ,   5.5778809923834549E-002
   1.1799999736249447      ,   5.4523535916626065E-002
   1.1899999734014273      ,   5.3263439894131556E-002
   1.1999999731779099      ,   5.1998650093993258E-002
   1.2099999729543924      ,   5.0729295166931233E-002
   1.2199999727308750      ,   4.9455504163579959E-002
   1.2299999725073576      ,   4.8177406521284084E-002
   1.2399999722838402      ,   4.6895132050854813E-002
   1.2499999720603228      ,   4.5608810923288404E-002
   1.2599999718368053      ,   4.4318573656448271E-002
   1.2699999716132879      ,   4.3024551101712154E-002
   1.2799999713897705      ,   4.1726874430585904E-002
   1.2899999711662531      ,   4.0425675121285372E-002
   1.2999999709427357      ,   3.9121084945287876E-002
   1.3099999707192183      ,   3.7813235953854885E-002
   1.3199999704957008      ,   3.6502260464527314E-002
   1.3299999702721834      ,   3.5188291047595112E-002
   1.3399999700486660      ,   3.3871460512542563E-002
   1.3499999698251486      ,   3.2551901894470943E-002
   1.3599999696016312      ,   3.1229748440500065E-002
   1.3699999693781137      ,   2.9905133596150275E-002
   1.3799999691545963      ,   2.8578190991706474E-002
   1.3899999689310789      ,   2.7249054428565747E-002
   1.3999999687075615      ,   2.5917857865570187E-002
   1.4099999684840441      ,   2.4584735405326488E-002
   1.4199999682605267      ,   2.3249821280513894E-002
   1.4299999680370092      ,   2.1913249840182142E-002
   1.4399999678134918      ,   2.0575155536040921E-002
   1.4499999675899744      ,   1.9235672908742528E-002
   1.4599999673664570      ,   1.7894936574159276E-002
   1.4699999671429396      ,   1.6553081209657268E-002
   1.4799999669194221      ,   1.5210241540368152E-002
   1.4899999666959047      ,   1.3866552325460475E-002
   1.4999999664723873      ,   1.2522148344412220E-002
   1.5099999662488699      ,   1.1177164383286167E-002
   1.5199999660253525      ,   9.8317352210096701E-003
   1.5299999658018351      ,   8.4859956156604667E-003
   1.5399999655783176      ,   7.1400802907601400E-003
   1.5499999653548002      ,   5.7941239215768261E-003
   1.5599999651312828      ,   4.4482611214387933E-003
   1.5699999649077654      ,   3.1026264280604927E-003
   1.5799999646842480      ,   1.7573542898826860E-003
   1.5899999644607306      ,   4.1257905242825504E-004
   1.5999999642372131      ,  -9.3156505532470584E-004
   1.6099999640136957      ,  -2.2749439345509177E-003
   1.6199999637901783      ,  -3.6174236301654726E-003
   1.6299999635666609      ,  -4.9588703443893233E-003
   1.6399999633431435      ,  -6.2991504502911229E-003
   1.6499999631196260      ,  -7.6381305053038360E-003
   1.6599999628961086      ,  -8.9756772647145416E-003
   1.6699999626725912      ,  -1.0311657695125853E-002
   1.6799999624490738      ,  -1.1645938987887400E-002
   1.6899999622255564      ,  -1.2978388572495808E-002
   1.6999999620020390      ,  -1.4308874129961615E-002
   1.7099999617785215      ,  -1.5637263606141601E-002
   1.7199999615550041      ,  -1.6963425225034957E-002
   1.7299999613314867      ,  -1.8287227502041807E-002
   1.7399999611079693      ,  -1.9608539257182516E-002
   1.7499999608844519      ,  -2.0927229628276298E-002
   1.7599999606609344      ,  -2.2243168084077610E-002
   1.7699999604374170      ,  -2.3556224437368829E-002
   1.7799999602138996      ,  -2.4866268858007721E-002
   1.7899999599903822      ,  -2.6173171885928243E-002
   1.7999999597668648      ,  -2.7476804444093186E-002
   1.8099999595433474      ,  -2.8777037851397215E-002
   1.8199999593198299      ,  -3.0073743835518835E-002
   1.8299999590963125      ,  -3.1366794545719889E-002
   1.8399999588727951      ,  -3.2656062565591122E-002
   1.8499999586492777      ,  -3.3941420925742392E-002
   1.8599999584257603      ,  -3.5222743116436167E-002
   1.8699999582022429      ,  -3.6499903100162878E-002
   1.8799999579787254      ,  -3.7772775324156758E-002
   1.8899999577552080      ,  -3.9041234732850809E-002
   1.8999999575316906      ,  -4.0305156780269517E-002
   1.9099999573081732      ,  -4.1564417442358038E-002
   1.9199999570846558      ,  -4.2818893229246410E-002
   1.9299999568611383      ,  -4.4068461197447610E-002
   1.9399999566376209      ,  -4.5312998961988066E-002
   1.9499999564141035      ,  -4.6552384708469355E-002
   1.9599999561905861      ,  -4.7786497205059827E-002
   1.9699999559670687      ,  -4.9015215814414904E-002
   1.9799999557435513      ,  -5.0238420505524767E-002
   1.9899999555200338      ,  -5.1455991865488243E-002
   1.9999999552965164      ,  -5.2667811111211674E-002
   2.0099999550729990      ,  -5.3873760101031530E-002
   2.0199999548494816      ,  -5.5073721346259624E-002
   2.0299999546259642      ,  -5.6267578022649749E-002
   2.0399999544024467      ,  -5.7455213981784541E-002
   2.0499999541789293      ,  -5.8636513762381506E-002
   2.0599999539554119      ,  -5.9811362601517037E-002
   2.0699999537318945      ,  -6.0979646445767283E-002
   2.0799999535083771      ,  -6.2141251962264867E-002
   2.0899999532848597      ,  -6.3296066549670321E-002
   2.0999999530613422      ,  -6.4443978349057171E-002
   2.1099999528378248      ,  -6.5584876254709643E-002
   2.1199999526143074      ,  -6.6718649924831980E-002
   2.1299999523907900      ,  -6.7845189792168359E-002
   2.1399999521672726      ,  -6.8964387074532396E-002
   2.1499999519437551      ,  -7.0076133785245215E-002
   2.1599999517202377      ,  -7.1180322743481281E-002
   2.1699999514967203      ,  -7.2276847584520826E-002
   2.1799999512732029      ,  -7.3365602769908181E-002
   2.1899999510496855      ,  -7.4446483597514879E-002
   2.1999999508261681      ,  -7.5519386211506834E-002
   2.2099999506026506      ,  -7.6584207612214530E-002
   2.2199999503791332      ,  -7.7640845665905567E-002
   2.2299999501556158      ,  -7.8689199114458500E-002
   2.2399999499320984      ,  -7.9729167584937338E-002
   2.2499999497085810      ,  -8.0760651599065786E-002
   2.2599999494850636      ,  -8.1783552582600436E-002
   2.2699999492615461      ,  -8.2797772874602188E-002
   2.2799999490380287      ,  -8.3803215736605097E-002
   2.2899999488145113      ,  -8.4799785361681909E-002
   2.2999999485909939      ,  -8.5787386883405564E-002
   2.3099999483674765      ,  -8.6765926384705983E-002
   2.3199999481439590      ,  -8.7735310906621358E-002
   2.3299999479204416      ,  -8.8695448456943438E-002
   2.3399999476969242      ,  -8.9646248018755884E-002
   2.3499999474734068      ,  -9.0587619558865351E-002
   2.3599999472498894      ,  -9.1519474036124440E-002
   2.3699999470263720      ,  -9.2441723409645973E-002
   2.3799999468028545      ,  -9.3354280646908094E-002
   2.3899999465793371      ,  -9.4257059731749415E-002
   2.3999999463558197      ,  -9.5149975672253834E-002
   2.4099999461323023      ,  -9.6032944508524384E-002
   2.4199999459087849      ,  -9.6905883320345554E-002
   2.4299999456852674      ,  -9.7768710234733602E-002
   2.4399999454617500      ,  -9.8621344433374392E-002
   2.4499999452382326      ,  -9.9463706159948165E-002
   2.4599999450147152      , -0.10029571672734085     
   2.4699999447911978      , -0.10111729852474145     
   2.4799999445676804      , -0.10192837502462504     
   2.4899999443441629      , -0.10272887078962085     
   2.4999999441206455      , -0.10351871147926527     
   2.5099999438971281      , -0.10429782385663905     
   2.5199999436736107      , -0.10506613579488862     
   2.5299999434500933      , -0.10582357628363090     
   2.5399999432265759      , -0.10657007543524136     
   2.5499999430030584      , -0.10730556449102499     
   2.5599999427795410      , -0.10802997582726982     
   2.5699999425560236      , -0.10874324296118265     
   2.5799999423325062      , -0.10944530055670669     
   2.5899999421089888      , -0.11013608443022087     
   2.5999999418854713      , -0.11081553155612041     
   2.6099999416619539      , -0.11148358007227853     
   2.6199999414384365      , -0.11214016928538895     
   2.6299999412149191      , -0.11278523967618889     
   2.6399999409914017      , -0.11341873290456250     
   2.6499999407678843      , -0.11404059181452429     
   2.6599999405443668      , -0.11465076043908252     
   2.6699999403208494      , -0.11524918400498223     
   2.6799999400973320      , -0.11583580893732778     
   2.6899999398738146      , -0.11641058286408476     
   2.6999999396502972      , -0.11697345462046092     
   2.7099999394267797      , -0.11752437425316627     
   2.7199999392032623      , -0.11806329302455182     
   2.7299999389797449      , -0.11859016341662723     
   2.7399999387562275      , -0.11910493913495687     
   2.7499999385327101      , -0.11960757511243444     
   2.7599999383091927      , -0.12009802751293591     
   2.7699999380856752      , -0.12057625373485070     
   2.7799999378621578      , -0.12104221241449106     
   2.7899999376386404      , -0.12149586342937949     
   2.7999999374151230      , -0.12193716790141419     
   2.8099999371916056      , -0.12236608819991250     
   2.8199999369680882      , -0.12278258794453216     
   2.8299999367445707      , -0.12318663200807048     
   2.8399999365210533      , -0.12357818651914126     
   2.8499999362975359      , -0.12395721886472959     
   2.8599999360740185      , -0.12432369769262430     
   2.8699999358505011      , -0.12467759291372825     
   2.8799999356269836      , -0.12501887570424630     
   2.8899999354034662      , -0.12534751850775105     
   2.8999999351799488      , -0.12566349503712634     
   2.9099999349564314      , -0.12596678027638852     
   2.9199999347329140      , -0.12625735048238546     
   2.9299999345093966      , -0.12653518318637347     
   2.9399999342858791      , -0.12680025719547200     
   2.9499999340623617      , -0.12705255259399631     
   2.9599999338388443      , -0.12729205074466809     
   2.9699999336153269      , -0.12751873428970401     
   2.9799999333918095      , -0.12773258715178246     
   2.9899999331682920      , -0.12793359453488834     
   2.9999999329447746      , -0.12812174292503617     
   3.0099999327212572      , -0.12829702009087143     
   3.0199999324977398      , -0.12845941508415035     
   3.0299999322742224      , -0.12860891824009807     
   3.0399999320507050      , -0.12874552117764559     
   3.0499999318271875      , -0.12886921679954527     
   3.0599999316036701      , -0.12897999929236514     
   3.0699999313801527      , -0.12907786412636221     
   3.0799999311566353      , -0.12916280805523481     
   3.0899999309331179      , -0.12923482911575404     
   3.0999999307096004      , -0.12929392662727462     
   3.1099999304860830      , -0.12934010119112513     
   3.1199999302625656      , -0.12937335468987793     
   3.1299999300390482      , -0.12939369028649872     
   3.1399999298155308      , -0.12940111242337610     
   3.1499999295920134      , -0.12939562682123121     
   3.1599999293684959      , -0.12937724047790744     
   3.1699999291449785      , -0.12934596166704082     
   3.1799999289214611      , -0.12930179993661076     
   3.1899999286979437      , -0.12924476610737168     
   3.1999999284744263      , -0.12917487227116556     
   3.2099999282509089      , -0.12909213178911566     
   3.2199999280273914      , -0.12899655928970163     
   3.2299999278038740      , -0.12888817066671612     
   3.2399999275803566      , -0.12876698307710319     
   3.2499999273568392      , -0.12863301493867862     
   3.2599999271333218      , -0.12848628592773267     
   3.2699999269098043      , -0.12832681697651502     
   3.2799999266862869      , -0.12815463027060242     
   3.2899999264627695      , -0.12796974924614946     
   3.2999999262392521      , -0.12777219858702216     
   3.3099999260157347      , -0.12756200422181529     
   3.3199999257922173      , -0.12733919332075311     
   3.3299999255686998      , -0.12710379429247409     
   3.3399999253451824      , -0.12685583678070000     
   3.3499999251216650      , -0.12659535166078911     
   3.3599999248981476      , -0.12632237103617444     
   3.3699999246746302      , -0.12603692823468693     
   3.3799999244511127      , -0.12573905780476391     
   3.3899999242275953      , -0.12542879551154321     
   3.3999999240040779      , -0.12510617833284321     
   3.4099999237805605      , -0.12477124445502914     
   3.4199999235570431      , -0.12442403326876586     
   3.4299999233335257      , -0.12406458536465760     
   3.4399999231100082      , -0.12369294252877494     
   3.4499999228864908      , -0.12330914773806927     
   3.4599999226629734      , -0.12291324515567516     
   3.4699999224394560      , -0.12250528012610105     
   3.4799999222159386      , -0.12208529917030854     
   3.4899999219924212      , -0.12165334998068057     
   3.4999999217689037      , -0.12120948141587914     
   3.5099999215453863      , -0.12075374349559263     
   3.5199999213218689      , -0.12028618739517330     
   3.5299999210983515      , -0.11980686544016537     
   3.5399999208748341      , -0.11931583110072404     
   3.5499999206513166      , -0.11881313898592581     
   3.5599999204277992      , -0.11829884483797069     
   3.5699999202042818      , -0.11777300552627656     
   3.5799999199807644      , -0.11723567904146623     
   3.5899999197572470      , -0.11668692448924758     
   3.5999999195337296      , -0.11612680208418737     
   3.6099999193102121      , -0.11555537314337896     
   3.6199999190866947      , -0.11497270008000469     
