t,theta,w
   0.0000000000000000      ,  0.14000000000000001      ,   0.0000000000000000     
   4.0000000000000001E-002 ,  0.13977673101656923      ,  -5.5817245857694596E-003
   8.0000000000000002E-002 ,  0.13938620610223598      ,  -9.7631228583310338E-003
  0.12000000000000000      ,  0.13888354666813113      ,  -1.2566485852621219E-002
  0.16000000000000000      ,  0.13832287663839693      ,  -1.4016750743354728E-002
  0.20000000000000001      ,  0.13775722034098170      ,  -1.4141407435380809E-002
  0.23999999999999999      ,  0.13723840423813888      ,  -1.2970402571070317E-002
  0.28000000000000003      ,  0.13681696259850770      ,  -1.0536040990779361E-002
  0.32000000000000001      ,  0.13654204721044993      ,  -6.8728847014441208E-003
  0.35999999999999999      ,  0.13646134123332859      ,  -2.0176494280332467E-003
  0.40000000000000002      ,  0.13662097727968114      ,   3.9909011588136279E-003
  0.44000000000000000      ,  0.13706545981686108      ,   1.1112063429498623E-002
  0.47999999999999998      ,  0.13783759197183909      ,   1.9303303874450339E-002
  0.52000000000000002      ,  0.13897840681763504      ,   2.8520371144899092E-002
  0.56000000000000005      ,  0.14052710321448000      ,   3.8717409921123706E-002
  0.59999999999999998      ,  0.14252098627346391      ,   4.9847076474597823E-002
  0.64000000000000001      ,  0.14499541250528422      ,   6.1860655795508014E-002
  0.68000000000000005      ,  0.14798373971192003      ,   7.4708180165894977E-002
  0.71999999999999997      ,  0.15151728167473538      ,   8.8338549070383798E-002
  0.76000000000000001      ,  0.15562526768874041      ,  0.10269965035012581     
  0.80000000000000004      ,  0.16033480698954169      ,  0.11773848252003215     
  0.83999999999999997      ,  0.16567085811687768      ,  0.13340127818339928     
  0.88000000000000000      ,  0.17165620325649064      ,  0.14963362849032427     
  0.92000000000000004      ,  0.17831142760031465      ,  0.16638060859560055     
  0.95999999999999996      ,  0.18565490376338853      ,  0.18358690407684680     
   1.0000000000000000      ,  0.19370278129432153      ,  0.20119693827332472     
   1.0400000000000000      ,  0.20246898131429231      ,  0.21915500049926978     
   1.0800000000000001      ,  0.21196519631716421      ,  0.23740537507179726     
   1.1200000000000001      ,  0.22220089516004377      ,  0.25589247107198931     
   1.1599999999999999      ,  0.23318333326917579      ,  0.27456095272830022     
   1.2000000000000000      ,  0.24491756808013196      ,  0.29335587027390453     
   1.2400000000000000      ,  0.25740647972350433      ,  0.31222279108430984     
   1.2800000000000000      ,  0.27065079695746569      ,  0.33110793084903450     
   1.3200000000000001      ,  0.28464912833635647      ,  0.34995828447226979     
   1.3600000000000001      ,  0.29939799858969174      ,  0.36872175633338200     
   1.4000000000000001      ,  0.31489189016850377      ,  0.38734728947030050     
   1.4399999999999999      ,  0.33112328989566331      ,  0.40578499317898764     
   1.4800000000000000      ,  0.34808274063375155      ,  0.42398626845220660     
   1.5200000000000000      ,  0.36575889785826293      ,  0.44190393061278505     
   1.5600000000000001      ,  0.38413859099557152      ,  0.45949232843271404     
   1.6000000000000001      ,  0.40320688935445098      ,  0.47670745897198702     
   1.6400000000000001      ,  0.42294717244734364      ,  0.49350707732231602     
   1.6799999999999999      ,  0.44334120446346070      ,  0.50985080040292674     
   1.7200000000000000      ,  0.46436921262068204      ,  0.52570020393053352     
   1.7600000000000000      ,  0.48600996908768634      ,  0.54101891167510774     
   1.8000000000000000      ,  0.50824087613243207      ,  0.55577267611864256     
   1.8400000000000001      ,  0.53103805411870808      ,  0.56992944965690095     
   1.8800000000000001      ,  0.55437643193969954      ,  0.58345944552478790     
   1.9199999999999999      ,  0.57822983944708917      ,  0.59633518768473970     
   1.9600000000000000      ,  0.60257110140685322      ,  0.60853154899410100     
   2.0000000000000000      ,  0.62737213248929646      ,  0.62002577706108064     
   2.0400000000000000      ,  0.65260403278162737      ,  0.63079750730827155     
   2.0800000000000001      ,  0.67823718329707194      ,  0.64082876288611379     
   2.1200000000000001      ,  0.70424134094562751      ,  0.65010394121388926     
   2.1600000000000001      ,  0.73058573242843849      ,  0.65860978707027473     
   2.2000000000000002      ,  0.75723914652068869      ,  0.66633535230625440     
   2.2400000000000002      ,  0.78417002421697679      ,  0.67327194240720367     
   2.2800000000000002      ,  0.81134654622837454      ,  0.67941305028494359     
   2.3199999999999998      ,  0.83873671734162536      ,  0.68475427783126963     
   2.3599999999999999      ,  0.86630844717797206      ,  0.68929324590866781     
   2.3999999999999999      ,  0.89402962692151677      ,  0.69302949358861754     
   2.4399999999999999      ,  0.92186820162432725      ,  0.69596436757026292     
   2.4800000000000000      ,  0.94979223773712262      ,  0.69810090281988368     
   2.5200000000000000      ,  0.97776998555962236      ,  0.69944369556249231     
   2.5600000000000001      ,   1.0057699363528003      ,  0.69999876982944875     
   2.6000000000000001      ,   1.0337608739055670      ,  0.69977343881916587     
   2.6400000000000001      ,   1.0617119204000152      ,  0.69877616236120343     
   2.6800000000000002      ,   1.0895925764715062      ,  0.69701640178727331     
   2.7200000000000002      ,   1.1173727554117596      ,  0.69450447350633715     
   2.7600000000000002      ,   1.1450228115139980      ,  0.69125140255596140     
   2.8000000000000003      ,   1.1725135626083860      ,  0.68726877735969927     
   2.8399999999999999      ,   1.1998163068828713      ,  0.68256860686213305     
   2.8799999999999999      ,   1.2269028341285217      ,  0.67716318114125884     
   2.9199999999999999      ,   1.2537454315890919      ,  0.67106493651425181     
   2.9600000000000000      ,   1.2803168846314752      ,  0.66428632605958338     
   3.0000000000000000      ,   1.3065904724866073      ,  0.65683969637830197     
   3.0400000000000000      ,   1.3325399593391016      ,  0.64873717131235964     
   3.0800000000000001      ,   1.3581395810683192      ,  0.63999054323044069     
   3.1200000000000001      ,   1.3833640279636779      ,  0.63061117238396758     
   3.1600000000000001      ,   1.4081884237528706      ,  0.62060989472981931     
   3.2000000000000002      ,   1.4325883012934140      ,  0.60999693851358650     
   3.2400000000000002      ,   1.4565395752857935      ,  0.59878184980948501     
   3.2800000000000002      ,   1.4800185123706611      ,  0.58697342712168721     
   3.3200000000000003      ,   1.5030016989733774      ,  0.57457966506791136     
   3.3599999999999999      ,   1.5254660072569965      ,  0.56160770709047747     
   3.3999999999999999      ,   1.5473885595399295      ,  0.54806380707332580     
   3.4399999999999999      ,   1.5687466915273731      ,  0.53395329968609329     
   3.4800000000000000      ,   1.5895179146965117      ,  0.51928057922846427     
   3.5200000000000000      ,   1.6096798781648987      ,  0.50404908670967274     
   3.5600000000000001      ,   1.6292103303596628      ,  0.48826130486910552     
   3.6000000000000001      ,   1.6480870807926302      ,  0.47191876082418444     
   3.6400000000000001      ,   1.6662879622334590      ,  0.45502203602071750     
   3.6800000000000002      ,   1.6837907935597898      ,  0.43757078315827042     
   3.7200000000000002      ,   1.7005733435505224      ,  0.41956374976831406     
   3.7600000000000002      ,   1.7166132958759388      ,  0.40099880813541133     
   3.8000000000000003      ,   1.7318882155267774      ,  0.38187299127096341     
   3.8399999999999999      ,   1.7463755169137563      ,  0.36218253467447142     
   3.8799999999999999      ,   1.7600524338596895      ,  0.34192292364832816     
   3.9199999999999999      ,   1.7728959916984210      ,  0.32108894596829085     
   3.9600000000000000      ,   1.7848829816885197      ,  0.29967474975246633     
   4.0000000000000000      ,   1.7959899379451740      ,  0.27767390641635648     
   4.0400000000000000      ,   1.8061931170911647      ,  0.25507947864976460     
   4.0800000000000001      ,   1.8154684808272712      ,  0.23188409340266175     
   4.1200000000000001      ,   1.8237916816241098      ,  0.20808001992096173     
   4.1600000000000001      ,   1.8311380517412714      ,  0.18365925292904334     
   4.2000000000000002      ,   1.8374825957858010      ,  0.15861360111323947     
   4.2400000000000002      ,   1.8427999870305523      ,  0.13293478111878268     
   4.2800000000000002      ,   1.8470645677237989      ,  0.10661451733116664     
   4.3200000000000003      ,   1.8502503536346293      ,   7.9644647770757915E-002
   4.3600000000000003      ,   1.8523310430940625      ,   5.2017236485829482E-002
   4.4000000000000004      ,   1.8532800308093773      ,   2.3724692882869103E-002
   4.4400000000000004      ,   1.8530704267486855      ,  -5.2401015172953390E-003
   4.4800000000000004      ,   1.8516750804140891      ,  -3.4883658364909961E-002
   4.5200000000000005      ,   1.8490666108445297      ,  -6.5211739238987404E-002
   4.5600000000000005      ,   1.8452174427132848      ,  -9.6229203281123582E-002
   4.6000000000000005      ,   1.8400998489094949      , -0.12793984509474715     
   4.6399999999999997      ,   1.8336860000174955      , -0.16034622229998316     
   4.6799999999999997      ,   1.8259480211313308      , -0.19344947215411784     
   4.7199999999999998      ,   1.8168580564637149      , -0.22724911669039516     
   4.7599999999999998      ,   1.8063883422277922      , -0.26174285589806551     
   4.7999999999999998      ,   1.7945112882850225      , -0.29692634856924160     
   4.8399999999999999      ,   1.7811995690618763      , -0.33279298057865447     
   4.8799999999999999      ,   1.7664262242400086      , -0.36933362054669261     
   4.9199999999999999      ,   1.7501647697171974      , -0.40653636307028307     
   4.9600000000000000      ,   1.7323893193173379      , -0.44438625999648601     
   5.0000000000000000      ,   1.7130747176946872      , -0.48286504056626489     
   5.0400000000000000      ,   1.6921966848276273      , -0.52195082167650042     
   5.0800000000000001      ,   1.6697319724275526      , -0.56161781000186684     
   5.1200000000000001      ,   1.6456585324960189      , -0.60183599828834011     
   5.1600000000000001      ,   1.6199556981448735      , -0.64257085877863562     
   5.2000000000000002      ,   1.5926043766466331      , -0.68378303745600766     
   5.2400000000000002      ,   1.5635872545029348      , -0.72542805359245721     
   5.2800000000000002      ,   1.5328890141048481      , -0.76745600995216601     
   5.3200000000000003      ,   1.5004965613081509      , -0.80981131991742938     
   5.3600000000000003      ,   1.4663992629580314      , -0.85243245875299056     
   5.4000000000000004      ,   1.4305891930708703      , -0.89525174717902811     
   5.4400000000000004      ,   1.3930613860169094      , -0.93819517634902216     
   5.4800000000000004      ,   1.3538140946495461      , -0.98118228418408449     
   5.5200000000000005      ,   1.3128490508995616      ,  -1.0241260937496113     
   5.5600000000000005      ,   1.2701717259029610      ,  -1.0669331249150171     
   5.6000000000000005      ,   1.2257915862690494      ,  -1.1095034908477885     
   5.6399999999999997      ,   1.1797223426334773      ,  -1.1517310908893044     
   5.6799999999999997      ,   1.1319821861946811      ,  -1.1935039109699057     
   5.7199999999999998      ,   1.0825940085196997      ,  -1.2347044418745328     
   5.7599999999999998      ,   1.0315855995475194      ,  -1.2752102243045065     
   5.7999999999999998      ,  0.97898981843772626      ,  -1.3148945277448285     
   5.8399999999999999      ,  0.92484473173341797      ,  -1.3536271676077081     
   5.8799999999999999      ,  0.86919371325439443      ,  -1.3912754619755896     
   5.9199999999999999      ,  0.81208550023292558      ,  -1.4277053255367211     
   5.9600000000000000      ,  0.75357420047063883      ,  -1.4627824940571679     
   6.0000000000000000      ,  0.69371924574779475      ,  -1.4963738680711018     
   6.0400000000000000      ,  0.63258528736596276      ,  -1.5283489595457991     
   6.0800000000000001      ,  0.57024203055473355      ,  -1.5585814202807307     
   6.1200000000000001      ,  0.50676400551633960      ,  -1.5869506259598496     
   6.1600000000000001      ,  0.44223027410241189      ,  -1.6133432853481924     
   6.2000000000000002      ,  0.37672407248731715      ,  -1.6376550403773682     
   6.2400000000000002      ,  0.31033239168472010      ,  -1.6597920200649268     
   6.2800000000000002      ,  0.24314549930062629      ,  -1.6796723096023454     
   6.3200000000000003      ,  0.17525640747166496      ,  -1.6972272957240331     
   6.3600000000000003      ,  0.10676029344084385      ,  -1.7124028507705278     
   6.4000000000000004      ,   3.7753880611312879E-002 ,  -1.7251603207382744     
   6.4400000000000004      ,  -3.1665210869885191E-002 ,  -1.7354772870299517     
   6.4800000000000004      , -0.10139913396793253      ,  -1.7433480774511834     
   6.5200000000000005      , -0.17135049432860300      ,  -1.7487840090167619     
   6.5600000000000005      , -0.24142302844964042      ,  -1.7518133530259350     
   6.6000000000000005      , -0.31152226930056404      ,  -1.7524810212730908     
   6.6400000000000006      , -0.38155618853140238      ,  -1.7508479807709589     
   6.6799999999999997      , -0.45143580503391634      ,  -1.7469904125628490     
   6.7199999999999998      , -0.52107575054166411      ,  -1.7409986376936948     
   6.7599999999999998      , -0.59039478413567048      ,  -1.7329758398501605     
   6.7999999999999998      , -0.65931624890736851      ,  -1.7230366192924518     
   6.8399999999999999      , -0.72776846555925268      ,  -1.7113054162971031     
   6.8799999999999999      , -0.79568505933202927      ,  -1.6979148443194143     
   6.9199999999999999      , -0.86300521827088517      ,  -1.6830039734713984     
   6.9600000000000000      , -0.92967388242249271      ,  -1.6667166037901888     
   7.0000000000000000      , -0.99564186503498453      ,  -1.6491995653122948     
   7.0400000000000000      ,  -1.0608659081708847      ,  -1.6306010783975011     
   7.0800000000000001      ,  -1.1253086763039137      ,  -1.6110692033257252     
   7.1200000000000001      ,  -1.1889386924318981      ,  -1.5907504031996114     
   7.1600000000000001      ,  -1.2517302219879065      ,  -1.5697882389002134     
   7.2000000000000002      ,  -1.3136631103686256      ,  -1.5483222095179783     
   7.2400000000000002      ,  -1.3747225802301861      ,  -1.5264867465390146     
   7.2800000000000002      ,  -1.4348989948417548      ,  -1.5044103652892165     
   7.3200000000000003      ,  -1.4941875937562847      ,  -1.4822149728632465     
   7.3600000000000003      ,  -1.5525882068796255      ,  -1.4600153280835209     
   7.4000000000000004      ,  -1.6101049527194480      ,  -1.4379186459955593     
   7.4400000000000004      ,  -1.6667459262003352      ,  -1.4160243370221823     
   7.4800000000000004      ,  -1.7225228809663620      ,  -1.3944238691506661     
   7.5200000000000005      ,  -1.7774509105811820      ,  -1.3732007403705029     
   7.5600000000000005      ,  -1.8315481324993441      ,  -1.3524305479540548     
   7.6000000000000005      ,  -1.8848353781396092      ,  -1.3321811410066269     
   7.6400000000000006      ,  -1.9373358918568042      ,  -1.3125128429298762     
   7.6799999999999997      ,  -1.9890750410954559      ,  -1.2934787309662903     
   7.7199999999999998      ,  -2.0400800395254328      ,  -1.2751249607494262     
   7.7599999999999998      ,  -2.0903796845137292      ,  -1.2574911247074134     
   7.7999999999999998      ,  -2.1400041098815823      ,  -1.2406106341963312     
   7.8399999999999999      ,  -2.1889845545345623      ,  -1.2245111163245002     
   7.8799999999999999      ,  -2.2373531472356163      ,  -1.2092148175263444     
   7.9199999999999999      ,  -2.2851427075164841      ,  -1.1947390070216946     
   7.9600000000000000      ,  -2.3323865624895883      ,  -1.1810963743276051     
   8.0000000000000000      ,  -2.3791183791278470      ,  -1.1682954159564671     
   8.0400000000000009      ,  -2.4253720114208113      ,  -1.1563408073241062     
   8.0800000000000001      ,  -2.4711813616887133      ,  -1.1452337566975539     
   8.1200000000000010      ,  -2.5165802552379701      ,  -1.1349723387314197     
   8.1600000000000001      ,  -2.5616023274689592      ,  -1.1255518057747291     
   8.1999999999999993      ,  -2.6062809224961505      ,  -1.1169648756797845     
   8.2400000000000002      ,  -2.6506490023087861      ,  -1.1092019953158876     
   8.2799999999999994      ,  -2.6947390654843781      ,  -1.1022515793897971     
   8.3200000000000003      ,  -2.7385830744647164      ,  -1.0961002245084603     
   8.3599999999999994      ,  -2.7822123904125231      ,  -1.0907328986951645     
   8.4000000000000004      ,  -2.8256577146843305      ,  -1.0861331067951812     
   8.4399999999999995      ,  -2.8689490359798691      ,  -1.0822830323884700     
   8.4800000000000004      ,  -2.9121155822587501      ,  -1.0791636569720318     
   8.5199999999999996      ,  -2.9551857765503335      ,  -1.0767548572895913     
   8.5600000000000005      ,  -2.9981871958214352      ,  -1.0750354817775425     
   8.5999999999999996      ,  -3.0411465321081970      ,  -1.0739834071690426     
   8.6400000000000006      ,  -3.0840895551625107      ,  -1.0735755763578423     
   8.6799999999999997      ,  -3.1270410759094860      ,  -1.0737880186743769     
   8.7200000000000006      ,  -3.1700249100603979      ,  -1.0745958537727962     
   8.7599999999999998      ,  -3.2130638412752943      ,  -1.0759732803724154     
   8.8000000000000007      ,  -3.2561795833210345      ,  -1.0778935511435086     
   8.8399999999999999      ,  -3.2993927407241488      ,  -1.0803289350778595     
   8.8800000000000008      ,  -3.3427227674737896      ,  -1.0832506687410168     
   8.9199999999999999      ,  -3.3861879233884786      ,  -1.0866288978672294     
   8.9600000000000009      ,  -3.4298052278216993      ,  -1.0904326108305198     
   9.0000000000000000      ,  -3.4735904104459681      ,  -1.0946295656067218     
   9.0400000000000009      ,  -3.5175578589232259      ,  -1.0991862119314488     
   9.0800000000000001      ,  -3.5617205633415128      ,  -1.1040676104571756     
   9.1200000000000010      ,  -3.6060900573742165      ,  -1.1092373508175954     
   9.1600000000000001      ,  -3.6506763561989048      ,  -1.1146574706172101     
   9.2000000000000011      ,  -3.6954878912979479      ,  -1.1202883774760797     
   9.2400000000000002      ,  -3.7405314423527667      ,  -1.1260887763704697     
   9.2799999999999994      ,  -3.7858120665373964      ,  -1.1320156046157384     
   9.3200000000000003      ,  -3.8313330256147338      ,  -1.1380239769334337     
   9.3599999999999994      ,  -3.8770957113397251      ,  -1.1440671431247853     
   9.4000000000000004      ,  -3.9230995697769853      ,  -1.1500964609315099     
   9.4399999999999995      ,  -3.9693420252448051      ,  -1.1560613866954992     
   9.4800000000000004      ,  -4.0158184047017871      ,  -1.1619094864245487     
   9.5199999999999996      ,  -4.0625218634947711      ,  -1.1675864698246039     
   9.5600000000000005      ,  -4.1094433134852864      ,  -1.1730362497628903     
