t,theta,w
   0.0000000000000000      ,  0.14000000000000001      ,   0.0000000000000000     
   4.0000000000000001E-002 ,  0.13977673101656923      ,  -5.5817245857694596E-003
   8.0000000000000002E-002 ,  0.13935232413349480      ,  -1.0610172076860786E-002
  0.12000000000000000      ,  0.13874916971230100      ,  -1.5078860529844735E-002
  0.16000000000000000      ,  0.13798986629329316      ,  -1.8982585475196392E-002
  0.20000000000000001      ,  0.13709716930118412      ,  -2.2317424802725833E-002
  0.23999999999999999      ,  0.13609393963897415      ,  -2.5080741555249093E-002
  0.28000000000000003      ,  0.13500309225497473      ,  -2.7271184599985444E-002
  0.32000000000000001      ,  0.13384754476903946      ,  -2.8888687148381519E-002
  0.35999999999999999      ,  0.13265016624513987      ,  -2.9934463097489854E-002
  0.40000000000000002      ,  0.13143372619835836      ,  -3.0411001169538009E-002
  0.44000000000000000      ,  0.13022084392512778      ,  -3.0322056830764537E-002
  0.47999999999999998      ,  0.12903393824609560      ,  -2.9672641975804572E-002
  0.52000000000000002      ,  0.12789517775130738      ,  -2.8469012369705775E-002
  0.56000000000000005      ,  0.12682643163747268      ,  -2.6718652845867184E-002
  0.59999999999999998      ,  0.12584922122688699      ,  -2.4430260264641769E-002
  0.64000000000000001      ,  0.12498467225713265      ,  -2.1613724243858545E-002
  0.68000000000000005      ,  0.12425346802997492      ,  -1.8280105678943469E-002
  0.71999999999999997      ,  0.12367580350691461      ,  -1.4441613076507639E-002
  0.76000000000000001      ,  0.12327134043767043      ,  -1.0111576731104251E-002
  0.80000000000000004      ,  0.12305916360646110      ,  -5.3044207802332597E-003
  0.83999999999999997      ,  0.12305773827936024      ,  -3.5633177521512439E-005
  0.88000000000000000      ,  0.12328486893422902      ,   5.6782663717195158E-003
  0.92000000000000004      ,  0.12375765935281595      ,   1.1819760464673125E-002
  0.95999999999999996      ,  0.12449247415257375      ,   1.8370369993945083E-002
   1.0000000000000000      ,  0.12550490183360122      ,   2.5310692025686733E-002
   1.0400000000000000      ,  0.12680971941389199      ,   3.2620439507269484E-002
   1.0800000000000001      ,  0.12842085872377829      ,   4.0278482747157354E-002
   1.1200000000000001      ,  0.13035137442810565      ,   4.8262892608184033E-002
   1.1599999999999999      ,  0.13261341384227127      ,   5.6550985354139986E-002
   1.2000000000000000      ,  0.13521818860580201      ,   6.5119369088268583E-002
   1.2400000000000000      ,  0.13817594827463425      ,   7.3943991720806318E-002
   1.2800000000000000      ,  0.14149595589067118      ,   8.3000190400923088E-002
   1.3200000000000001      ,  0.14518646558451798      ,   9.2262742346169602E-002
   1.3600000000000001      ,  0.14925470226450485      ,  0.10170591699967180     
   1.4000000000000001      ,  0.15370684344217245      ,  0.11130352944169024     
   1.4399999999999999      ,  0.15854800324127918      ,  0.12102899497766849     
   1.4800000000000000      ,  0.16378221863405645      ,  0.13085538481943207     
   1.5200000000000000      ,  0.16941243794484451      ,  0.14075548276970154     
   1.5600000000000001      ,  0.17544051165734506      ,  0.15070184281251353     
   1.6000000000000001      ,  0.18186718555748510      ,  0.16066684750350071     
   1.6400000000000001      ,  0.18869209623925726      ,  0.17062276704430404     
   1.6799999999999999      ,  0.19591376899584748      ,  0.18054181891475535     
   1.7200000000000000      ,  0.20352961811284720      ,  0.19039622792499311     
   1.7600000000000000      ,  0.21153594957434801      ,  0.20015828653752060     
   1.8000000000000000      ,  0.21992796618621127      ,  0.20980041529658111     
   1.8400000000000001      ,  0.22869977511378520      ,  0.21929522318934824     
   1.8800000000000001      ,  0.23784439782380842      ,  0.22861556775058053     
   1.9199999999999999      ,  0.24735378241220327      ,  0.23773461470987126     
   1.9600000000000000      ,  0.25721881829095367      ,  0.24662589696876000     
   2.0000000000000000      ,  0.26742935319831790      ,  0.25526337268410582     
   2.0400000000000000      ,  0.27797421248730203      ,  0.26362148222460347     
   2.0800000000000001      ,  0.28884122063768247      ,  0.27167520375951065     
   2.1200000000000001      ,  0.30001722492699795      ,  0.27940010723288738     
   2.1600000000000001      ,  0.31148812118592850      ,  0.28677240647326424     
   2.2000000000000002      ,  0.32323888155344660      ,  0.29376900918795240     
   2.2400000000000002      ,  0.33525358413718498      ,  0.30036756459345920     
   2.2800000000000002      ,  0.34751544447474098      ,  0.30654650843890024     
   2.3199999999999998      ,  0.36000684868226412      ,  0.31228510518807873     
   2.3599999999999999      ,  0.37270938816779009      ,  0.31756348713814914     
   2.3999999999999999      ,  0.38560389577853188      ,  0.32236269026854480     
   2.4399999999999999      ,  0.39867048324385634      ,  0.32666468663311088     
   2.4800000000000000      ,  0.41188857976909848      ,  0.33045241313105356     
   2.5200000000000000      ,  0.42523697162982776      ,  0.33370979651823246     
   2.5600000000000001      ,  0.43869384261179767      ,  0.33642177454924799     
   2.6000000000000001      ,  0.45223681513869418      ,  0.33857431317241221     
   2.6400000000000001      ,  0.46584299192804085      ,  0.34015441973366606     
   2.6800000000000002      ,  0.47948899801529687      ,  0.34115015218140066     
   2.7200000000000002      ,  0.49315102298735597      ,  0.34155062430147715     
   2.7600000000000002      ,  0.50680486326935636      ,  0.34134600705000856     
   2.8000000000000003      ,  0.52042596431296140      ,  0.34052752609012582     
   2.8399999999999999      ,  0.53398946254005897      ,  0.33908745567743898     
   2.8799999999999999      ,  0.54747022690312541      ,  0.33701910907666044     
   2.9199999999999999      ,  0.56084289993225822      ,  0.33431682572832150     
   2.9600000000000000      ,  0.57408193814902408      ,  0.33097595541914671     
   3.0000000000000000      ,  0.58716165173870183      ,  0.32699283974194371     
   3.0400000000000000      ,  0.60005624338511576      ,  0.32236479116034750     
   3.0800000000000001      ,  0.61273984618591593      ,  0.31709007002000533     
   3.1200000000000001      ,  0.62518656058073330      ,  0.31116785987043455     
   3.1600000000000001      ,  0.63737049023995429      ,  0.30459824148052395     
   3.2000000000000002      ,  0.64926577687776377      ,  0.29738216594523598     
   3.2400000000000002      ,  0.66084663396941690      ,  0.28952142729132846     
   3.2800000000000002      ,  0.67208737936924634      ,  0.28101863499573648     
   3.3200000000000003      ,  0.68296246684251005      ,  0.27187718683159162     
   3.3599999999999999      ,  0.69344651654065881      ,  0.26210124245371774     
   3.3999999999999999      ,  0.70351434446577477      ,  0.25169569812789766     
   3.4399999999999999      ,  0.71314099098562933      ,  0.24066616299636351     
   3.4800000000000000      ,  0.72230174847586859      ,  0.22901893725598169     
   3.5200000000000000      ,  0.73097218818009513      ,  0.21676099260566473     
   3.5600000000000001      ,  0.73912818639192923      ,  0.20389995529585353     
   3.6000000000000001      ,  0.74674595007535716      ,  0.19044409208569768     
   3.6400000000000001      ,  0.75380204205067891      ,  0.17640229938304444     
   3.6800000000000002      ,  0.76027340588302916      ,  0.16178409580875491     
   3.7200000000000002      ,  0.76613739061864561      ,  0.14659961839041105     
   3.7600000000000002      ,  0.77137177552070013      ,  0.13085962255136308     
   3.8000000000000003      ,  0.77595479496147890      ,  0.11457548601946937     
   3.8399999999999999      ,  0.77986516363091729      ,   9.7759216735959442E-002
   3.8799999999999999      ,  0.78308210222286667      ,   8.0423464798734232E-002
   3.9199999999999999      ,  0.78558536375991539      ,   6.2581538426218344E-002
   3.9600000000000000      ,  0.78735526071502249      ,   4.4247423877678708E-002
   4.0000000000000000      ,  0.78837269308357438      ,   2.5435809213797147E-002
   4.0400000000000000      ,  0.78861917755266586      ,   6.1621117272877279E-003
   4.0800000000000001      ,  0.78807687790536762      ,  -1.3557491182455812E-002
   4.1200000000000001      ,  0.78672863678639782      ,  -3.3706027974244705E-002
   4.1600000000000001      ,  0.78455800894190697      ,  -5.4265696112272083E-002
   4.2000000000000002      ,  0.78154929602994450      ,  -7.5217822799062889E-002
   4.2400000000000002      ,  0.77768758307955488      ,  -9.6542823759740257E-002
   4.2800000000000002      ,  0.77295877665530277      , -0.11822016060630407     
   4.3200000000000003      ,  0.76734964476032208      , -0.14022829737451770     
   4.3600000000000003      ,  0.76084785848471415      , -0.16254465689019851     
   4.4000000000000004      ,  0.75344203537728904      , -0.18514557768562764     
   4.4400000000000004      ,  0.74512178448730049      , -0.20800627224971346     
   4.4800000000000004      ,  0.73587775298903746      , -0.23110078745657536     
   4.5200000000000005      ,  0.72570167426602550      , -0.25440196807529947     
   4.5600000000000005      ,  0.71458641729332517      , -0.27788142431750879     
   4.6000000000000005      ,  0.70252603711621930      , -0.30150950442764801     
   4.6399999999999997      ,  0.68951582618174401      , -0.32525527336188176     
   4.6799999999999997      ,  0.67555236623640680      , -0.34908649863343072     
   4.7199999999999998      ,  0.66063358045948450      , -0.37296964442305708     
   4.7599999999999998      ,  0.64475878545703880      , -0.39686987506114385     
   4.7999999999999998      ,  0.62792874269783083      , -0.42075106898019932     
   4.8399999999999999      ,  0.61014570892937448      , -0.44457584421140989     
   4.8799999999999999      ,  0.59141348507122049      , -0.46830559645385095     
   4.9199999999999999      ,  0.57173746304409923      , -0.49190055067803229     
   4.9600000000000000      ,  0.55112466995871168      , -0.51531982713468927     
   5.0000000000000000      ,  0.52958380905777058      , -0.53852152252352659     
   5.0400000000000000      ,  0.50712529678041962      , -0.56146280693377404     
   5.0800000000000001      ,  0.48376129530048895      , -0.58410003699826651     
   5.1200000000000001      ,  0.45950573988027704      , -0.60638888550529702     
   5.1600000000000001      ,  0.43437436038073829      , -0.62828448748846899     
   5.2000000000000002      ,  0.40838469627810547      , -0.64974160256581992     
   5.2400000000000002      ,  0.38155610455697792      , -0.67071479302818837     
   5.2800000000000002      ,  0.35390975988150769      , -0.69115861688675539     
   5.3200000000000003      ,  0.32546864649008533      , -0.71102783478555953     
   5.3600000000000003      ,  0.29625754131519516      , -0.73027762937225371     
   5.4000000000000004      ,  0.26630298789895140      , -0.74886383540609369     
   5.4400000000000004      ,  0.23563326075600519      , -0.76674317857365537     
   5.4800000000000004      ,  0.20427831992847387      , -0.78387352068828298     
   5.5200000000000005      ,  0.17226975558137464      , -0.80021410867748077     
   5.5600000000000005      ,  0.13964072260048344      , -0.81572582452228037     
   5.6000000000000005      ,  0.10642586527596920      , -0.83037143311285599     
   5.6399999999999997      ,   7.2661232282622085E-002 , -0.84411582483367775     
   5.6799999999999997      ,   3.8384182298748314E-002 , -0.85692624959684427     
   5.7199999999999998      ,   3.6332807383362906E-003 , -0.86877253901030060     
   5.7599999999999998      ,  -3.1551811797795148E-002 , -0.87962731340328604     
   5.7999999999999998      ,  -6.7130458619299949E-002 , -0.88946617053762012     
   5.8399999999999999      , -0.10306117273975150      , -0.89826785301128875     
   5.8799999999999999      , -0.13930174840411022      , -0.90601439160896768     
   5.9199999999999999      , -0.17580939729087158      , -0.91269122216903387     
   5.9600000000000000      , -0.21254088824736617      , -0.91828727391236442     
   6.0000000000000000      , -0.24945268935163628      , -0.92279502760675269     
   6.0400000000000000      , -0.28650111104811943      , -0.92621054241207912     
   6.0800000000000001      , -0.32364244907827316      , -0.92853345075384319     
   6.1200000000000001      , -0.36083312592201300      , -0.92976692109349646     
   6.1600000000000001      , -0.39802982948160004      , -0.92991758898967547     
   6.2000000000000002      , -0.43518964777604779      , -0.92899545736119360     
   6.2400000000000002      , -0.47227019847033158      , -0.92701376735709418     
   6.2800000000000002      , -0.50922975213827582      , -0.92398884169860629     
   6.3200000000000003      , -0.54602734824912358      , -0.91993990277119475     
   6.3600000000000003      , -0.58262290297322206      , -0.91488886810246317     
   6.4000000000000004      , -0.61897730801945705      , -0.90886012615587464     
   6.4400000000000004      , -0.65505251984328694      , -0.90188029559574645     
   6.4800000000000004      , -0.69081163869659667      , -0.89397797133274426     
   6.5200000000000005      , -0.72621897712621541      , -0.88518346074046894     
   6.5600000000000005      , -0.76124011766398636      , -0.87552851344427485     
   6.6000000000000005      , -0.79584195958505799      , -0.86504604802679175     
   6.6400000000000006      , -0.82999275474010481      , -0.85376987887617162     
   6.6799999999999997      , -0.86366213258929347      , -0.84173444622971727     
   6.7199999999999998      , -0.89682111467910441      , -0.82897455224527394     
   6.7599999999999998      , -0.92944211890607742      , -0.81552510567432468     
   6.7999999999999998      , -0.96149895400300689      , -0.80142087742323709     
   6.8399999999999999      , -0.99296680476227561      , -0.78669626898171918     
   6.8799999999999999      ,  -1.0238222085774407      , -0.77138509537912703     
   6.9199999999999999      ,  -1.0540430239377665      , -0.75552038400814336     
   6.9600000000000000      ,  -1.0836083915513297      , -0.73913419033908256     
   7.0000000000000000      ,  -1.1124986888010622      , -0.72225743124330999     
   7.0400000000000000      ,  -1.1406954782553265      , -0.70491973635660465     
   7.0800000000000001      ,  -1.1681814509612176      , -0.68714931764728115     
   7.1200000000000001      ,  -1.1949403652457362      , -0.66897285711296661     
   7.1600000000000001      ,  -1.2209569817383965      , -0.65041541231650457     
   7.2000000000000002      ,  -1.2462169953098743      , -0.63150033928694416     
   7.2400000000000002      ,  -1.2707069645961344      , -0.61224923215650562     
   7.2800000000000002      ,  -1.2944142397472760      , -0.59268187877853717     
   7.3200000000000003      ,  -1.3173268890062315      , -0.57281623147389071     
   7.3600000000000003      ,  -1.3394336246855274      , -0.55266839198239748     
   7.4000000000000004      ,  -1.3607237290715424      , -0.53225260965037247     
   7.4400000000000004      ,  -1.3811869807460284      , -0.51158129186215051     
   7.4800000000000004      ,  -1.4008135817748775      , -0.49066502572122878     
   7.5200000000000005      ,  -1.4195940861749654      , -0.46951261000219841     
   7.5600000000000005      ,  -1.4375193300319993      , -0.44813109642584403     
   7.6000000000000005      ,  -1.4545803636061652      , -0.42652583935414723     
   7.6400000000000006      ,  -1.4707683857284508      , -0.40470055305714264     
   7.6799999999999997      ,  -1.4860746807591494      , -0.38265737576746617     
   7.7199999999999998      ,  -1.5004905583515094      , -0.36039693980899856     
   7.7599999999999998      ,  -1.5140072962379663      , -0.33791844716142228     
   7.7999999999999998      ,  -1.5266160862340121      , -0.31521974990114598     
   7.8399999999999999      ,  -1.5383079836355908      , -0.29229743503946548     
   7.8799999999999999      ,  -1.5490738601699816      , -0.26914691335976676     
   7.9199999999999999      ,  -1.5589043606474193      , -0.24576251193594184     
   7.9600000000000000      ,  -1.5677898634511411      , -0.22213757009304336     
   8.0000000000000000      ,  -1.5757204449970506      , -0.19826453864773663     
   8.0400000000000009      ,  -1.5826858482906352      , -0.17413508233961428     
   8.0800000000000001      ,  -1.5886754557080069      , -0.14974018543429249     
   8.1200000000000010      ,  -1.5936782661298006      , -0.12507026054484272     
   8.1600000000000001      ,  -1.5976828765609599      , -0.10011526077898351     
   8.1999999999999993      ,  -1.6006774683759610      ,  -7.4864795375027632E-002
   8.2400000000000002      ,  -1.6026497983375323      ,  -4.9308249039282298E-002
   8.2799999999999994      ,  -1.6035871945471651      ,  -2.3434905240822704E-002
   8.3200000000000003      ,  -1.6034765574973895      ,   2.7659262443937814E-003
   8.3599999999999994      ,  -1.6023043664085888      ,   2.9304777220019351E-002
   8.4000000000000004      ,  -1.6000566910467027      ,   5.6191884047150517E-002
   8.4399999999999995      ,  -1.5967192092321043      ,   8.3437045364960633E-002
   8.4800000000000004      ,  -1.5922772302638066      ,  0.11104947420743980     
   8.5199999999999996      ,  -1.5867157244964496      ,  0.13903764418392547     
   8.5600000000000005      ,  -1.5800193593196674      ,  0.16740912941955599     
   8.5999999999999996      ,  -1.5721725417998258      ,  0.19617043799604120     
   8.6400000000000006      ,  -1.5631594682520207      ,  0.22532683869512726     
   8.6799999999999997      ,  -1.5529641810148647      ,  0.25488218092889986     
   8.7200000000000006      ,  -1.5415706327010725      ,  0.28483870784480519     
   8.7599999999999998      ,  -1.5289627581922229      ,  0.31519686272123865     
   8.8000000000000007      ,  -1.5151245546352616      ,  0.34595508892403332     
   8.8399999999999999      ,  -1.5000401696801664      ,  0.37710962387738206     
   8.8800000000000008      ,  -1.4836939981714994      ,  0.40865428771667550     
   8.9199999999999999      ,  -1.4660707874700136      ,  0.44058026753714424     
   8.9600000000000009      ,  -1.4471557515327225      ,  0.47287589843227912     
   9.0000000000000000      ,  -1.4269346938195098      ,  0.50552644283031567     
   9.0400000000000009      ,  -1.4053941390201004      ,  0.53851386998523754     
   9.0800000000000001      ,  -1.3825214735057307      ,  0.57181663785924208     
   9.1200000000000010      ,  -1.3583050943039938      ,  0.60540948004342465     
   9.1600000000000001      ,  -1.3327345662720806      ,  0.63926320079783050     
   9.2000000000000011      ,  -1.3058007870023141      ,  0.67334448174416650     
   9.2400000000000002      ,  -1.2774961588341065      ,  0.70761570420518771     
   9.2799999999999994      ,  -1.2478147671684170      ,  0.74203479164223651     
   9.3200000000000003      ,  -1.2167525640851389      ,  0.77655507708195204     
   9.3599999999999994      ,  -1.1843075560520537      ,  0.81112520082712802     
   9.4000000000000004      ,  -1.1504799942882751      ,  0.84568904409446466     
   9.4399999999999995      ,  -1.1152725661086706      ,  0.88018570449011035     
   9.4800000000000004      ,  -1.0786905853328070      ,  0.91454951939658935     
   9.5199999999999996      ,  -1.0407421795978338      ,  0.94871014337433390     
   9.5600000000000005      ,  -1.0014384721758702      ,  0.98259268554908696     
