t,theta,w
   0.0000000000000000      ,  0.14000000000000001      ,   0.0000000000000000     
   3.9999999105930328E-002 ,  0.13977673102655014      ,  -5.5817244610081931E-003
   7.9999998211860657E-002 ,  0.13938218728698282      ,  -9.8635937096513034E-003
  0.11999999731779099      ,  0.13886849398763843      ,  -1.2842332770658448E-002
  0.15999999642372131      ,  0.13828778814258810      ,  -1.4517646450752628E-002
  0.19999999552965164      ,  0.13769209964259649      ,  -1.4892212832657214E-002
  0.23999999463558197      ,  0.13713323278744488      ,  -1.3971671691081390E-002
  0.27999999374151230      ,  0.13666264848980386      ,  -1.1764607703985097E-002
  0.31999999284744263      ,  0.13633134736336555      ,  -8.2825283460869620E-003
  0.35999999195337296      ,  0.13618975391182350      ,  -3.5398363676724266E-003
  0.39999999105930328      ,  0.13628760203849144      ,   2.4462032213751501E-003
  0.43999999016523361      ,  0.13667382209891218      ,   9.6555017263359379E-003
  0.47999998927116394      ,  0.13739642972081664      ,   1.8065190951400044E-002
  0.51999998837709427      ,  0.13850241661738583      ,   2.7649673032247996E-002
  0.55999998748302460      ,  0.14003764362112894      ,   3.8380675951453155E-002
  0.59999998658895493      ,  0.14204673616702368      ,   5.0227314770036079E-002
  0.63999998569488525      ,  0.14457298245509598      ,   6.3156158613457455E-002
  0.67999998480081558      ,  0.14765823452457461      ,   7.7131303460984749E-002
  0.71999998390674591      ,  0.15134281247435538      ,   9.2114450803437720E-002
  0.75999998301267624      ,  0.15566541206794540      ,  0.10806499225519127     
  0.79999998211860657      ,  0.16066301596548141      ,  0.12494010023102879     
  0.83999998122453690      ,  0.16637080883093069      ,  0.14269482482571016     
  0.87999998033046722      ,  0.17282209656922770      ,  0.16128219706236330     
  0.91999997943639755      ,  0.18004822995583847      ,  0.18065333870318609     
  0.95999997854232788      ,  0.18807853292996340      ,  0.20075757884040490     
  0.99999997764825821      ,  0.19694023583207959      ,  0.22154257750476739     
   1.0399999767541885      ,  0.20665841387649156      ,  0.24295445654075470     
   1.0799999758601189      ,  0.21725593115961309      ,  0.26493793799986265     
   1.1199999749660492      ,  0.22875339051436339      ,  0.28743649029346374     
   1.1599999740719795      ,  0.24116908952976326      ,  0.31039248232280942     
   1.1999999731779099      ,  0.25451898306192094      ,  0.33374734576377590     
   1.2399999722838402      ,  0.26881665256740045      ,  0.35744174562643360     
   1.2799999713897705      ,  0.28407328259171893      ,  0.38141575913326803     
   1.3199999704957008      ,  0.30029764474364579      ,  0.40560906286424037     
   1.3599999696016312      ,  0.31749608947930053      ,  0.42996112800174813     
   1.3999999687075615      ,  0.33567254600800478      ,  0.45441142337449347     
   1.4399999678134918      ,  0.35482853061373648      ,  0.47889962584753309     
   1.4799999669194221      ,  0.37496316366122706      ,  0.50336583743836727     
   1.5199999660253525      ,  0.39607319552372411      ,  0.52775080835857546     
   1.5599999651312828      ,  0.41815304162982991      ,  0.55199616499072146     
   1.5999999642372131      ,  0.44119482677941596      ,  0.57604464161525193     
   1.6399999633431435      ,  0.46518843882338706      ,  0.59984031450675335     
   1.6799999624490738      ,  0.49012159173923264      ,  0.62332883682862528     
   1.7199999615550041      ,  0.51597989806428612      ,  0.64645767257579123     
   1.7599999606609344      ,  0.54274695057209832      ,  0.66917632765256274     
   1.7999999597668648      ,  0.57040441299523859      ,  0.69143657603331876     
   1.8399999588727951      ,  0.59893211951132330      ,  0.71319267884321602     
   1.8799999579787254      ,  0.62830818261952759      ,  0.73440159412026140     
   1.9199999570846558      ,  0.65850910894383197      ,  0.75502317498369187     
   1.9599999561905861      ,  0.68950992240854081      ,  0.77502035394077695     
   1.9999999552965164      ,  0.72128429414304351      ,  0.79435931111788061     
   2.0399999544024467      ,  0.75380467838830056      ,  0.81300962430360879     
   2.0799999535083771      ,  0.78704245359907599      ,  0.83094439884243965     
   2.1199999526143074      ,  0.82096806786538701      ,  0.84814037561519007     
   2.1599999517202377      ,  0.85555118771580496      ,  0.86457801558527292     
   2.1999999508261681      ,  0.89076084931571486      ,  0.88024155967268036     
   2.2399999499320984      ,  0.92656561103682866      ,  0.89511906303531430     
   2.2799999490380287      ,  0.96293370635124698      ,  0.90920240318271572     
   2.3199999481439590      ,  0.99983319599497633      ,  0.92248726171242990     
   2.3599999472498894      ,   1.0372321183524611      ,  0.93497307983539746     
   2.3999999463558197      ,   1.0750986370354640      ,  0.94666298823464035     
   2.4399999454617500      ,   1.1134011846662042      ,  0.95756371217171832     
   2.4799999445676804      ,   1.1521086019253770      ,  0.96768545310877652     
   2.5199999436736107      ,   1.1911902709895068      ,  0.97704174844182956     
   2.5599999427795410      ,   1.2306162425576834      ,  0.98564931123539623     
   2.5999999418854713      ,   1.2703573557535202      ,  0.99352785210299432     
   2.6399999409914017      ,   1.3103853502823013      ,   1.0006998855869123     
   2.6799999400973320      ,   1.3506729703238090      ,   1.0071905235501533     
   2.7199999392032623      ,   1.3911940597461363      ,   1.0130272582011075     
   2.7599999383091927      ,   1.4319236483328210      ,   1.0182397374265477     
   2.7999999374151230      ,   1.4728380288227800      ,   1.0228595351116689     
   2.8399999365210533      ,   1.5139148246678125      ,   1.0269199190792573     
   2.8799999356269836      ,   1.5551330485139965      ,   1.0304556191870786     
   2.9199999347329140      ,   1.5964731515094817      ,   1.0335025979877142     
   2.9599999338388443      ,   1.6379170636304845      ,   1.0360978261836618     
   2.9999999329447746      ,   1.6794482252985310      ,   1.0382790649085065     
   3.0399999320507050      ,   1.7210516106341687      ,   1.0400846566386448     
   3.0799999311566353      ,   1.7627137427547814      ,   1.0415533262958501     
   3.1199999302625656      ,   1.8044227015763228      ,   1.0427239938452335     
   3.1599999293684959      ,   1.8461681246205170      ,   1.0436355994319295     
   3.1999999284744263      ,   1.8879412013603658      ,   1.0443269418387440     
   3.2399999275803566      ,   1.9297346616578515      ,   1.0448365307910596     
   3.2799999266862869      ,   1.9715427588589227      ,   1.0452024533888746     
   3.3199999257922173      ,   2.0133612481127106      ,   1.0454622547125978     
   3.3599999248981476      ,   2.0551873604751045      ,   1.0456528324320147     
   3.3999999240040779      ,   2.0970197733420304      ,   1.0458103450488327     
   3.4399999231100082      ,   2.1388585777358133      ,   1.0459701332238236     
   3.4799999222159386      ,   2.1807052429396907      ,   1.0461666534805774     
   3.5199999213218689      ,   2.2225625789416834      ,   1.0464334234394275     
   3.5599999204277992      ,   2.2644346971104423      ,   1.0468029776168404     
   3.5999999195337296      ,   2.3063269694831448      ,   1.0473068327266966     
   3.6399999186396599      ,   2.3482459869997530      ,   1.0479754613392800     
   3.6799999177455902      ,   2.3901995169696204      ,   1.0488382726900478     
   3.7199999168515205      ,   2.4321964600061867      ,   1.0499235993817795     
   3.7599999159574509      ,   2.4742468066138423      ,   1.0512586886888524     
   3.7999999150633812      ,   2.5163615935584813      ,   1.0528696971494513     
   3.8399999141693115      ,   2.5585528601001868      ,   1.0547816871188440     
   3.8799999132752419      ,   2.6008336041132547      ,   1.0570186239529020     
   3.9199999123811722      ,   2.6432177380656721      ,   1.0596033724944172     
   3.9599999114871025      ,   2.6857200447774416      ,   1.0625576915442592     
   3.9999999105930328      ,   2.7283561328250148      ,   1.0659022250141026     
   4.0399999096989632      ,   2.7711423914077318      ,   1.0696564884766104     
   4.0799999088048935      ,   2.8140959444417346      ,   1.0738388498522415     
   4.1199999079108238      ,   2.8572346035974774      ,   1.0784665029991740     
   4.1599999070167542      ,   2.9005768199488839      ,   1.0835554330045107     
   4.1999999061226845      ,   2.9441416338555992      ,   1.0891203720116149     
   4.2399999052286148      ,   2.9879486226548830      ,   1.0951747444611597     
   4.2799999043345451      ,   3.0320178456968079      ,   1.1017306006737153     
   4.3199999034404755      ,   3.0763697862159169      ,   1.1087985377613023     
   4.3599999025464058      ,   3.1210252894948520      ,   1.1163876069265843     
   4.3999999016523361      ,   3.1660054967412243      ,   1.1245052062939522     
   4.4399999007582664      ,   3.2113317740688943      ,   1.1331569585197827     
   4.4799998998641968      ,   3.2570256359496814      ,   1.1423465725531154     
   4.5199998989701271      ,   3.3031086624823160      ,   1.1520756890667627     
   4.5599998980760574      ,   3.3496024098133628      ,   1.1623437092565758     
   4.5999998971819878      ,   3.3965283130411925      ,   1.1731476069176405     
   4.6399998962879181      ,   3.4439075809403854      ,   1.1844817239550500     
   4.6799998953938484      ,   3.4917610818618989      ,   1.1963375497780611     
   4.7199998944997787      ,   3.5401092201957991      ,   1.2087034853641305     
   4.7599998936057091      ,   3.5889718028303284      ,   1.2215645931673300     
   4.7999998927116394      ,   3.6383678951057190      ,   1.2349023344869836     
   4.8399998918175697      ,   3.6883156658456588      ,   1.2486942964089882     
   4.8799998909235001      ,   3.7388322211559091      ,   1.2629139109845824     
   4.9199998900294304      ,   3.7899334268104186      ,   1.2775301699177566     
   4.9599998891353607      ,   3.8416337192023859      ,   1.2925073386889778     
   4.9999998882412910      ,   3.8939459050228100      ,   1.3078046747423089     
   5.0399998873472214      ,   3.9468809500434028      ,   1.3233761550945815     
   5.0799998864531517      ,   4.0004477576250546      ,   1.3391702194740829     
   5.1199998855590820      ,   4.0546529378471794      ,   1.3551295358426199     
   5.1599998846650124      ,   4.1095005684562036      ,   1.3711907958741099     
   5.1999998837709427      ,   4.1649919491608758      ,   1.3872845486250398     
   5.2399998828768730      ,   4.2211253511542752      ,   1.4033350812019760     
   5.2799998819828033      ,   4.2778957641121051      ,   1.4192603556686905     
   5.3199998810887337      ,   4.3352946432969865      ,   1.4349720116961535     
   5.3599998801946640      ,   4.3933096597800745      ,   1.4503754444956081     
   5.3999998793005943      ,   4.4519244571635364      ,   1.4653699673401210     
   5.4399998784065247      ,   4.5111184185375199      ,   1.4798490674267997     
   5.4799998775124550      ,   4.5708664477187684      ,   1.4937007629180306     
   5.5199998766183853      ,   4.6311387690792305      ,   1.5068080676913453     
   5.5599998757243156      ,   4.6919007504651473      ,   1.5190495686013226     
   5.5999998748302460      ,   4.7531127538132179      ,   1.5303001179066462     
   5.6399998739361763      ,   4.8147300180741324      ,   1.5404316409541920     
   5.6799998730421066      ,   4.8767025789399865      ,   1.5493140562762240     
   5.7199998721480370      ,   4.9389752296284328      ,   1.5568163020087085     
   5.7599998712539673      ,   5.0014875265938841      ,   1.5628074590677443     
   5.7999998703598976      ,   5.0641738435104600      ,   1.5671579579431183     
   5.8399998694658279      ,   5.1269634762039198      ,   1.5697408524229413     
   5.8799998685717583      ,   5.1897808004082515      ,   1.5704331402102150     
   5.9199998676776886      ,   5.2525454833014251      ,   1.5691171074018342     
   5.9599998667836189      ,   5.3151727487554448      ,   1.5656816713462054     
   5.9999998658895493      ,   5.3775736951463573      ,   1.5600236946420598     
   6.0399998649954796      ,   5.4396556634440101      ,   1.5520492421323251     
   6.0799998641014099      ,   5.5013226521774419      ,   1.5416747527949113     
   6.1199998632073402      ,   5.5624757747907880      ,   1.5288280995056240     
   6.1599998623132706      ,   5.6230137539082268      ,   1.5134495117642028     
   6.1999998614192009      ,   5.6828334461548708      ,   1.4954923395929536     
   6.2399998605251312      ,   5.7418303904698229      ,   1.4749236408409130     
   6.2799998596310616      ,   5.7998993723279870      ,   1.4517245789026765     
   6.3199998587369919      ,   5.8569349959807777      ,   1.4258906231909123     
   6.3599998578429222      ,   5.9128322567454221      ,   1.3974315503511459     
   6.3999998569488525      ,   5.9674871055206893      ,   1.3663712499224578     
   6.4399998560547829      ,   6.0207969980759426      ,   1.3327473436705504     
   6.4799998551607132      ,   6.0726614222329092      ,   1.2966106329056750     
   6.5199998542666435      ,   6.1229823968094106      ,   1.2580243925315675     
   6.5599998533725739      ,   6.1716649370884298      ,   1.2170635341789688     
   6.5999998524785042      ,   6.2186174825763958      ,   1.1738136634359204     
   6.6399998515844345      ,   6.2637522838807662      ,   1.1283700578303022     
   6.6799998506903648      ,   2.3800439448368849E-002 ,   1.0808365928382915     
   6.7199998497962952      ,   6.5053424239442686E-002 ,   1.0313246428287479     
   6.7599998489022255      ,  0.10425150266717753      ,  0.97995198259700500     
   6.7999998480081558      ,  0.14132517036320111      ,  0.92684171311711594     
   6.8399998471140862      ,  0.17621001888341956      ,  0.87212123249888973     
   6.8799998462200165      ,  0.20884686895543453      ,  0.81592127003763548     
   6.9199998453259468      ,  0.23918186819158818      ,  0.75837499785484364     
   6.9599998444318771      ,  0.26716655681022994      ,  0.69961723110370821     
   6.9999998435378075      ,  0.29275790520604000      ,  0.63978372419553264     
   7.0399998426437378      ,  0.31591832737283720      ,  0.57901056711182441     
   7.0799998417496681      ,  0.33661567421814814      ,  0.51743368269831702     
   7.1199998408555984      ,  0.35482321072966910      ,  0.45518842296227841     
   7.1599998399615288      ,  0.37051958077323160      ,  0.39240925986009262     
   7.1999998390674591      ,  0.38368876303460697      ,  0.32922956389323821     
   7.2399998381733894      ,  0.39432002127833743      ,  0.26578146203394032     
   7.2799998372793198      ,  0.40240785170031668      ,  0.20219576506890902     
   7.3199998363852501      ,  0.40795192971088678      ,  0.13860195336224784     
   7.3599998354911804      ,  0.41095705801459548      ,   7.5128209271963772E-002
   7.3999998345971107      ,  0.41143311736319021      ,   1.1901483980887098E-002
   7.4399998337030411      ,  0.40939502086053847      ,  -5.0952413705169355E-002
   7.4799998328089714      ,  0.40486267220159339      , -0.11330871900627448     
   7.5199998319149017      ,  0.39786092774108561      , -0.17504361542522343     
   7.5599998310208321      ,  0.38841956181951781      , -0.23603415331496944     
   7.5999998301267624      ,  0.37657323433206719      , -0.29615819380591746     
   7.6399998292326927      ,  0.36236145911775147      , -0.35529438829934162     
   7.6799998283386230      ,  0.34582857137920359      , -0.41332220270216824     
   7.7199998274445534      ,  0.32702369202516446      , -0.47012199435902313     
   7.7599998265504837      ,  0.30600068656588503      , -0.52557514822950568     
   7.7999998256564140      ,  0.28281811599348783      , -0.57956427726420123     
   7.8399998247623444      ,  0.25753917695216400      , -0.63197349015880389     
   7.8799998238682747      ,  0.23023162845350262      , -0.68268872772581657     
   7.9199998229742050      ,  0.20096770242597395      , -0.73159816704071012     
   7.9599998220801353      ,  0.16982399550896776      , -0.77859269032805767     
   7.9999998211860657      ,  0.13688133971334748      , -0.82356641329865099     
   8.0399998202919960      ,  0.10222464987244520      , -0.86641726538849229     
   8.0799998193979263      ,   6.5942746197274416E-002 , -0.90704761215336360     
   8.1199998185038567      ,   2.8128150721856406E-002 , -0.94536490801600259     
   8.1599998176097870      ,  -1.1123143030022625E-002 , -0.98128236573034577     
   8.1999998167157173      ,  -5.1711927218967127E-002 ,  -1.0147196274043637     
   8.2399998158216476      ,  -9.3536063115815943E-002 ,  -1.0456034207922782     
   8.2799998149275780      , -0.13649078951180721      ,  -1.0738681839026061     
   8.3199998140335083      , -0.18046905416204603      ,  -1.0994566408307413     
   8.3599998131394386      , -0.22536186564480026      ,  -1.1223203121546694     
   8.3999998122453690      , -0.27105866239328563      ,  -1.1424199442472103     
   8.4399998113512993      , -0.31744769509434095      ,  -1.1597258434482762     
   8.4799998104572296      , -0.36441641817122422      ,  -1.1742181031679020     
   8.5199998095631599      , -0.41185188569451897      ,  -1.1858867145890026     
   8.5599998086690903      , -0.45964114681098323      ,  -1.1947315546159381     
   8.5999998077750206      , -0.50767163565572215      ,  -1.2007622479575997     
   8.6399998068809509      , -0.55583155072378909      ,  -1.2039979036131248     
   8.6799998059868813      , -0.60401021882321726      ,  -1.2044667294076343     
   8.7199998050928116      , -0.65209843900706743      ,  -1.2022055314676405     
   8.7599998041987419      , -0.69998880227671301      ,  -1.1972591085019653     
   8.7999998033046722      , -0.74757598334707476      ,  -1.1896795533504541     
   8.8399998024106026      , -0.79475700134799010      ,  -1.1795254763873328     
   8.8799998015165329      , -0.84143144698284411      ,  -1.1668611669527302     
   8.9199998006224632      , -0.88750167435299065      ,  -1.1517557099974094     
   8.9599997997283936      , -0.93287295636103118      ,  -1.1342820755541940     
   8.9999997988343239      , -0.97745360330517195      ,  -1.1145161985148984     
   9.0399997979402542      ,  -1.0211550449499129      ,  -1.0925360655386072     
   9.0799997970461845      ,  -1.0638918769871113      ,  -1.0684208248110272     
   9.1199997961521149      ,  -1.1055818733710896      ,  -1.0422499328955590     
   9.1599997952580452      ,  -1.1461459665105795      ,  -1.0141023511542000     
   9.1999997943639755      ,  -1.1855081977213053      , -0.98405580226350398     
   9.2399997934699059      ,  -1.2235956406819513      , -0.95218609529916354     
   9.2799997925758362      ,  -1.2603383008926035      , -0.91856652579786580     
   9.3199997916817665      ,  -1.2956689943110189      , -0.88326735520294863     
   9.3599997907876968      ,  -1.3295232084433239      , -0.84635537222514379     
   9.3999997898936272      ,  -1.3618389491990954      , -0.80789353695211596     
   9.4399997889995575      ,  -1.3925565767948076      , -0.76794070705761475     
   9.4799997881054878      ,  -1.4216186339138808      , -0.72655144421651885     
   9.5199997872114182      ,  -1.4489696692160259      , -0.68377589783721082     
   9.5599997863173485      ,  -1.4745560591432483      , -0.63965976247807099     
